# wave       flux     unc      tunc
  2.36000     5.20     0.16     0.16
  2.36013     5.19     0.16     0.16
  2.36025     5.17     0.16     0.16
  2.36038     5.15     0.16     0.16
  2.36050     5.13     0.16     0.16
  2.36063     5.11     0.16     0.16
  2.36075     5.10     0.16     0.16
  2.36088     5.08     0.16     0.16
  2.36100     5.08     0.16     0.16
  2.36113     5.07     0.16     0.16
  2.36125     5.06     0.16     0.16
  2.36138     5.06     0.16     0.16
  2.36150     5.06     0.16     0.16
  2.36163     5.05     0.16     0.16
  2.36175     5.05     0.16     0.16
  2.36188     5.05     0.16     0.16
  2.36200     5.05     0.16     0.16
  2.36213     5.04     0.16     0.16
  2.36225     5.03     0.16     0.16
  2.36238     5.02     0.16     0.16
  2.36250     5.02     0.16     0.16
  2.36263     5.02     0.16     0.16
  2.36275     5.03     0.16     0.16
  2.36288     5.04     0.16     0.16
  2.36300     5.06     0.16     0.16
  2.36313     5.10     0.16     0.16
  2.36325     5.13     0.16     0.16
  2.36338     5.17     0.16     0.16
  2.36350     5.21     0.16     0.16
  2.36363     5.25     0.16     0.16
  2.36375     5.28     0.16     0.16
  2.36388     5.31     0.16     0.16
  2.36400     5.34     0.16     0.16
  2.36413     5.35     0.16     0.16
  2.36425     5.37     0.16     0.16
  2.36438     5.37     0.16     0.16
  2.36450     5.38     0.16     0.16
  2.36463     5.37     0.16     0.16
  2.36475     5.37     0.16     0.16
  2.36488     5.36     0.15     0.15
  2.36500     5.35     0.15     0.15
  2.36513     5.33     0.15     0.15
  2.36525     5.32     0.15     0.15
  2.36538     5.30     0.15     0.15
  2.36550     5.29     0.15     0.15
  2.36563     5.27     0.15     0.15
  2.36575     5.25     0.15     0.15
  2.36588     5.23     0.15     0.15
  2.36600     5.21     0.15     0.15
  2.36613     5.19     0.15     0.15
  2.36625     5.17     0.15     0.15
  2.36638     5.15     0.15     0.15
  2.36650     5.13     0.15     0.15
  2.36663     5.11     0.15     0.15
  2.36675     5.09     0.15     0.15
  2.36688     5.07     0.15     0.15
  2.36700     5.05     0.15     0.15
  2.36713     5.03     0.15     0.15
  2.36725     5.01     0.15     0.15
  2.36738     5.00     0.14     0.14
  2.36750     5.00     0.14     0.14
  2.36763     5.02     0.14     0.14
  2.36775     5.04     0.14     0.14
  2.36788     5.09     0.14     0.14
  2.36800     5.13     0.14     0.14
  2.36813     5.19     0.14     0.14
  2.36825     5.24     0.14     0.14
  2.36838     5.29     0.14     0.14
  2.36850     5.32     0.14     0.14
  2.36863     5.35     0.14     0.14
  2.36875     5.36     0.14     0.14
  2.36888     5.37     0.14     0.14
  2.36900     5.36     0.14     0.14
  2.36913     5.33     0.14     0.14
  2.36925     5.31     0.14     0.14
  2.36938     5.28     0.14     0.14
  2.36950     5.25     0.14     0.14
  2.36963     5.22     0.14     0.14
  2.36975     5.19     0.14     0.14
  2.36988     5.18     0.14     0.14
  2.37000     5.18     0.14     0.14
  2.37013     5.18     0.14     0.14
  2.37025     5.20     0.14     0.14
  2.37038     5.22     0.14     0.14
  2.37050     5.25     0.14     0.14
  2.37063     5.28     0.14     0.14
  2.37075     5.30     0.14     0.14
  2.37088     5.31     0.14     0.14
  2.37100     5.32     0.14     0.14
  2.37113     5.32     0.14     0.14
  2.37125     5.30     0.14     0.14
  2.37138     5.28     0.14     0.14
  2.37150     5.25     0.14     0.14
  2.37163     5.22     0.14     0.14
  2.37175     5.19     0.14     0.14
  2.37188     5.16     0.14     0.14
  2.37200     5.14     0.14     0.14
  2.37213     5.12     0.14     0.14
  2.37225     5.12     0.13     0.13
  2.37238     5.11     0.13     0.13
  2.37250     5.12     0.13     0.13
  2.37263     5.13     0.13     0.13
  2.37275     5.15     0.13     0.13
  2.37288     5.17     0.13     0.13
  2.37300     5.18     0.13     0.13
  2.37313     5.20     0.13     0.13
  2.37325     5.21     0.13     0.13
  2.37338     5.23     0.13     0.13
  2.37350     5.23     0.13     0.13
  2.37363     5.25     0.13     0.13
  2.37375     5.26     0.13     0.13
  2.37388     5.27     0.13     0.13
  2.37400     5.28     0.13     0.13
  2.37413     5.29     0.13     0.13
  2.37425     5.30     0.13     0.13
  2.37438     5.31     0.13     0.13
  2.37450     5.31     0.13     0.13
  2.37463     5.31     0.12     0.12
  2.37475     5.30     0.12     0.12
  2.37488     5.29     0.12     0.12
  2.37500     5.29     0.12     0.12
  2.37513     5.27     0.12     0.12
  2.37525     5.25     0.12     0.12
  2.37538     5.23     0.12     0.12
  2.37550     5.21     0.12     0.12
  2.37563     5.17     0.12     0.12
  2.37575     5.15     0.12     0.12
  2.37588     5.12     0.12     0.12
  2.37600     5.09     0.12     0.12
  2.37613     5.07     0.12     0.12
  2.37625     5.06     0.12     0.12
  2.37638     5.04     0.12     0.12
  2.37650     5.04     0.12     0.12
  2.37663     5.06     0.12     0.12
  2.37675     5.07     0.12     0.12
  2.37688     5.08     0.12     0.12
  2.37700     5.10     0.12     0.12
  2.37713     5.10     0.12     0.12
  2.37725     5.10     0.12     0.12
  2.37738     5.10     0.12     0.12
  2.37750     5.08     0.12     0.12
  2.37763     5.07     0.12     0.12
  2.37775     5.04     0.12     0.12
  2.37788     5.02     0.12     0.12
  2.37800     4.99     0.12     0.12
  2.37813     4.96     0.12     0.12
  2.37825     4.94     0.12     0.12
  2.37838     4.92     0.12     0.12
  2.37850     4.90     0.12     0.12
  2.37863     4.89     0.12     0.12
  2.37875     4.88     0.12     0.12
  2.37888     4.87     0.12     0.12
  2.37900     4.88     0.12     0.12
  2.37913     4.89     0.12     0.12
  2.37925     4.91     0.12     0.12
  2.37938     4.95     0.12     0.12
  2.37950     4.99     0.11     0.11
  2.37963     5.03     0.11     0.11
  2.37975     5.08     0.11     0.11
  2.37988     5.12     0.11     0.11
  2.38000     5.15     0.11     0.11
  2.38013     5.18     0.11     0.11
  2.38025     5.20     0.11     0.11
  2.38038     5.21     0.11     0.11
  2.38050     5.21     0.11     0.11
  2.38063     5.21     0.11     0.11
  2.38075     5.20     0.11     0.11
  2.38088     5.19     0.11     0.11
  2.38100     5.18     0.11     0.11
  2.38113     5.17     0.11     0.11
  2.38125     5.15     0.11     0.11
  2.38138     5.14     0.11     0.11
  2.38150     5.13     0.11     0.11
  2.38163     5.12     0.11     0.11
  2.38175     5.11     0.11     0.11
  2.38188     5.10     0.11     0.11
  2.38200     5.10     0.11     0.11
  2.38213     5.10     0.10     0.10
  2.38225     5.10     0.10     0.10
  2.38238     5.10     0.10     0.10
  2.38250     5.10     0.10     0.10
  2.38263     5.10     0.10     0.10
  2.38275     5.10     0.10     0.10
  2.38288     5.09     0.10     0.10
  2.38300     5.09     0.10     0.10
  2.38313     5.08     0.10     0.10
  2.38325     5.07     0.10     0.10
  2.38338     5.07     0.10     0.10
  2.38350     5.08     0.10     0.10
  2.38363     5.08     0.10     0.10
  2.38375     5.09     0.10     0.10
  2.38388     5.11     0.10     0.10
  2.38400     5.12     0.10     0.10
  2.38413     5.14     0.10     0.10
  2.38425     5.16     0.10     0.10
  2.38438     5.17     0.10     0.10
  2.38450     5.19     0.10     0.10
  2.38463     5.19     0.10     0.10
  2.38475     5.20     0.10     0.10
  2.38488     5.20     0.10     0.10
  2.38500     5.20     0.09     0.09
  2.38513     5.20     0.09     0.09
  2.38525     5.20     0.09     0.09
  2.38538     5.20     0.09     0.09
  2.38550     5.20     0.09     0.09
  2.38563     5.22     0.09     0.09
  2.38575     5.22     0.09     0.09
  2.38588     5.24     0.09     0.09
  2.38600     5.25     0.09     0.09
  2.38613     5.26     0.09     0.09
  2.38625     5.28     0.09     0.09
  2.38638     5.28     0.09     0.09
  2.38650     5.30     0.09     0.09
  2.38663     5.29     0.09     0.09
  2.38675     5.30     0.09     0.09
  2.38688     5.31     0.09     0.09
  2.38700     5.31     0.09     0.09
  2.38713     5.31     0.09     0.09
  2.38725     5.31     0.09     0.09
  2.38738     5.31     0.09     0.09
  2.38750     5.32     0.09     0.09
  2.38763     5.33     0.09     0.09
  2.38775     5.33     0.09     0.09
  2.38788     5.33     0.09     0.09
  2.38800     5.33     0.09     0.09
  2.38813     5.32     0.09     0.09
  2.38825     5.32     0.09     0.09
  2.38838     5.31     0.09     0.09
  2.38850     5.30     0.09     0.09
  2.38863     5.28     0.09     0.09
  2.38875     5.26     0.09     0.09
  2.38888     5.24     0.09     0.09
  2.38900     5.22     0.09     0.09
  2.38913     5.20     0.09     0.09
  2.38925     5.18     0.09     0.09
  2.38938     5.16     0.09     0.09
  2.38950     5.14     0.09     0.09
  2.38963     5.13     0.09     0.09
  2.38975     5.12     0.09     0.09
  2.38988     5.11     0.09     0.09
  2.39000     5.11     0.09     0.09
  2.39013     5.11     0.09     0.09
  2.39025     5.12     0.09     0.09
  2.39038     5.12     0.09     0.09
  2.39050     5.14     0.09     0.09
  2.39063     5.14     0.09     0.09
  2.39075     5.16     0.09     0.09
  2.39088     5.17     0.09     0.09
  2.39100     5.18     0.09     0.09
  2.39113     5.19     0.09     0.09
  2.39125     5.20     0.09     0.09
  2.39138     5.21     0.09     0.09
  2.39150     5.21     0.09     0.09
  2.39163     5.22     0.08     0.08
  2.39175     5.22     0.08     0.08
  2.39188     5.23     0.08     0.08
  2.39200     5.23     0.08     0.08
  2.39213     5.23     0.08     0.08
  2.39225     5.23     0.08     0.08
  2.39238     5.23     0.08     0.08
  2.39250     5.23     0.08     0.08
  2.39263     5.23     0.08     0.08
  2.39275     5.24     0.08     0.08
  2.39288     5.24     0.08     0.08
  2.39300     5.24     0.08     0.08
  2.39313     5.24     0.08     0.08
  2.39325     5.24     0.08     0.08
  2.39338     5.24     0.08     0.08
  2.39350     5.22     0.08     0.08
  2.39363     5.21     0.08     0.08
  2.39375     5.20     0.08     0.08
  2.39388     5.17     0.08     0.08
  2.39400     5.15     0.08     0.08
  2.39413     5.13     0.08     0.08
  2.39425     5.12     0.08     0.08
  2.39438     5.11     0.08     0.08
  2.39450     5.09     0.08     0.08
  2.39463     5.09     0.08     0.08
  2.39475     5.09     0.08     0.08
  2.39488     5.09     0.08     0.08
  2.39500     5.10     0.08     0.08
  2.39513     5.11     0.08     0.08
  2.39525     5.12     0.08     0.08
  2.39538     5.13     0.08     0.08
  2.39550     5.14     0.08     0.08
  2.39563     5.14     0.08     0.08
  2.39575     5.15     0.07     0.07
  2.39588     5.15     0.07     0.07
  2.39600     5.14     0.07     0.07
  2.39613     5.14     0.07     0.07
  2.39625     5.13     0.07     0.07
  2.39638     5.12     0.07     0.07
  2.39650     5.11     0.07     0.07
  2.39663     5.11     0.07     0.07
  2.39675     5.11     0.07     0.07
  2.39688     5.11     0.07     0.07
  2.39700     5.11     0.07     0.07
  2.39713     5.11     0.07     0.07
  2.39725     5.11     0.07     0.07
  2.39738     5.11     0.07     0.07
  2.39750     5.11     0.07     0.07
  2.39763     5.11     0.07     0.07
  2.39775     5.10     0.07     0.07
  2.39788     5.10     0.07     0.07
  2.39800     5.09     0.07     0.07
  2.39813     5.08     0.07     0.07
  2.39825     5.08     0.07     0.07
  2.39838     5.07     0.07     0.07
  2.39850     5.06     0.07     0.07
  2.39863     5.06     0.07     0.07
  2.39875     5.05     0.07     0.07
  2.39888     5.05     0.07     0.07
  2.39900     5.05     0.07     0.07
  2.39913     5.06     0.07     0.07
  2.39925     5.06     0.07     0.07
  2.39938     5.07     0.07     0.07
  2.39950     5.07     0.07     0.07
  2.39963     5.09     0.07     0.07
  2.39975     5.09     0.07     0.07
  2.39988     5.10     0.07     0.07
  2.40000     5.11     0.07     0.07
  2.40013     5.12     0.07     0.07
  2.40025     5.12     0.07     0.07
  2.40038     5.13     0.07     0.07
  2.40050     5.13     0.07     0.07
  2.40063     5.13     0.07     0.07
  2.40075     5.13     0.07     0.07
  2.40088     5.12     0.07     0.07
  2.40100     5.11     0.07     0.07
  2.40113     5.10     0.07     0.07
  2.40125     5.09     0.07     0.07
  2.40138     5.07     0.07     0.07
  2.40150     5.07     0.07     0.07
  2.40163     5.05     0.07     0.07
  2.40175     5.05     0.07     0.07
  2.40188     5.05     0.07     0.07
  2.40200     5.05     0.07     0.07
  2.40213     5.05     0.07     0.07
  2.40225     5.05     0.07     0.07
  2.40238     5.05     0.07     0.07
  2.40250     5.06     0.07     0.07
  2.40263     5.06     0.07     0.07
  2.40275     5.07     0.07     0.07
  2.40288     5.08     0.07     0.07
  2.40300     5.09     0.07     0.07
  2.40313     5.10     0.07     0.07
  2.40325     5.11     0.07     0.07
  2.40338     5.12     0.07     0.07
  2.40350     5.14     0.07     0.07
  2.40363     5.14     0.07     0.07
  2.40375     5.15     0.07     0.07
  2.40388     5.16     0.07     0.07
  2.40400     5.15     0.07     0.07
  2.40413     5.15     0.07     0.07
  2.40425     5.16     0.07     0.07
  2.40438     5.17     0.07     0.07
  2.40450     5.17     0.07     0.07
  2.40463     5.19     0.07     0.07
  2.40475     5.21     0.07     0.07
  2.40488     5.23     0.07     0.07
  2.40500     5.26     0.07     0.07
  2.40513     5.30     0.07     0.07
  2.40525     5.35     0.07     0.07
  2.40538     5.41     0.07     0.07
  2.40550     5.49     0.07     0.07
  2.40563     5.57     0.07     0.07
  2.40575     5.65     0.07     0.07
  2.40588     5.75     0.07     0.07
  2.40600     5.84     0.07     0.07
  2.40613     5.93     0.07     0.07
  2.40625     6.01     0.07     0.07
  2.40638     6.08     0.07     0.07
  2.40650     6.13     0.07     0.07
  2.40663     6.17     0.07     0.07
  2.40675     6.19     0.07     0.07
  2.40688     6.19     0.07     0.07
  2.40700     6.18     0.07     0.07
  2.40713     6.14     0.07     0.07
  2.40725     6.10     0.06     0.06
  2.40738     6.04     0.06     0.06
  2.40750     5.96     0.06     0.06
  2.40763     5.87     0.06     0.06
  2.40775     5.77     0.06     0.06
  2.40788     5.67     0.06     0.06
  2.40800     5.58     0.06     0.06
  2.40813     5.49     0.06     0.06
  2.40825     5.40     0.06     0.06
  2.40838     5.32     0.06     0.06
  2.40850     5.26     0.06     0.06
  2.40863     5.21     0.06     0.06
  2.40875     5.18     0.06     0.06
  2.40888     5.14     0.06     0.06
  2.40900     5.12     0.06     0.06
  2.40913     5.11     0.06     0.06
  2.40925     5.11     0.06     0.06
  2.40938     5.11     0.06     0.06
  2.40950     5.11     0.06     0.06
  2.40963     5.11     0.06     0.06
  2.40975     5.12     0.06     0.06
  2.40988     5.13     0.06     0.06
  2.41000     5.13     0.06     0.06
  2.41013     5.13     0.06     0.06
  2.41025     5.13     0.06     0.06
  2.41038     5.13     0.06     0.06
  2.41050     5.13     0.06     0.06
  2.41063     5.12     0.06     0.06
  2.41075     5.12     0.06     0.06
  2.41088     5.12     0.06     0.06
  2.41100     5.12     0.06     0.06
  2.41113     5.12     0.06     0.06
  2.41125     5.13     0.06     0.06
  2.41138     5.14     0.06     0.06
  2.41150     5.14     0.06     0.06
  2.41163     5.15     0.06     0.06
  2.41175     5.17     0.06     0.06
  2.41188     5.19     0.06     0.06
  2.41200     5.20     0.06     0.06
  2.41213     5.23     0.06     0.06
  2.41225     5.25     0.06     0.06
  2.41238     5.27     0.06     0.06
  2.41250     5.31     0.06     0.06
  2.41263     5.33     0.06     0.06
  2.41275     5.37     0.06     0.06
  2.41288     5.39     0.06     0.06
  2.41300     5.41     0.06     0.06
  2.41313     5.42     0.06     0.06
  2.41325     5.43     0.06     0.06
  2.41338     5.44     0.06     0.06
  2.41350     5.43     0.06     0.06
  2.41363     5.42     0.06     0.06
  2.41375     5.40     0.06     0.06
  2.41388     5.38     0.06     0.06
  2.41400     5.36     0.06     0.06
  2.41413     5.34     0.06     0.06
  2.41425     5.31     0.06     0.06
  2.41438     5.29     0.06     0.06
  2.41450     5.26     0.06     0.06
  2.41463     5.23     0.06     0.06
  2.41475     5.20     0.06     0.06
  2.41488     5.17     0.06     0.06
  2.41500     5.15     0.06     0.06
  2.41513     5.12     0.06     0.06
  2.41525     5.10     0.06     0.06
  2.41538     5.09     0.06     0.06
  2.41550     5.08     0.06     0.06
  2.41563     5.07     0.06     0.06
  2.41575     5.06     0.06     0.06
  2.41588     5.06     0.06     0.06
  2.41600     5.06     0.06     0.06
  2.41613     5.07     0.06     0.06
  2.41625     5.07     0.06     0.06
  2.41638     5.07     0.06     0.06
  2.41650     5.08     0.06     0.06
  2.41663     5.08     0.06     0.06
  2.41675     5.08     0.06     0.06
  2.41688     5.07     0.06     0.06
  2.41700     5.06     0.06     0.06
  2.41713     5.06     0.06     0.06
  2.41725     5.05     0.06     0.06
  2.41738     5.05     0.06     0.06
  2.41750     5.04     0.06     0.06
  2.41763     5.03     0.06     0.06
  2.41775     5.03     0.05     0.05
  2.41788     5.03     0.05     0.05
  2.41800     5.03     0.05     0.05
  2.41813     5.04     0.05     0.05
  2.41825     5.04     0.05     0.05
  2.41838     5.05     0.05     0.05
  2.41850     5.06     0.05     0.05
  2.41863     5.06     0.05     0.05
  2.41875     5.07     0.05     0.05
  2.41888     5.06     0.05     0.05
  2.41900     5.06     0.05     0.05
  2.41913     5.05     0.05     0.05
  2.41925     5.04     0.05     0.05
  2.41938     5.02     0.05     0.05
  2.41950     4.99     0.05     0.05
  2.41963     4.97     0.05     0.05
  2.41975     4.96     0.05     0.05
  2.41988     4.94     0.05     0.05
  2.42000     4.93     0.05     0.05
  2.42013     4.92     0.05     0.05
  2.42025     4.91     0.05     0.05
  2.42038     4.91     0.05     0.05
  2.42050     4.91     0.05     0.05
  2.42063     4.91     0.05     0.05
  2.42075     4.90     0.05     0.05
  2.42088     4.90     0.05     0.05
  2.42100     4.89     0.05     0.05
  2.42113     4.89     0.05     0.05
  2.42125     4.88     0.05     0.05
  2.42138     4.88     0.05     0.05
  2.42150     4.88     0.05     0.05
  2.42163     4.89     0.05     0.05
  2.42175     4.90     0.05     0.05
  2.42188     4.91     0.05     0.05
  2.42200     4.94     0.05     0.05
  2.42213     4.96     0.05     0.05
  2.42225     4.99     0.05     0.05
  2.42238     5.03     0.05     0.05
  2.42250     5.08     0.05     0.05
  2.42263     5.13     0.05     0.05
  2.42275     5.17     0.05     0.05
  2.42288     5.23     0.05     0.05
  2.42300     5.27     0.05     0.05
  2.42313     5.32     0.05     0.05
  2.42325     5.37     0.05     0.05
  2.42338     5.41     0.05     0.05
  2.42350     5.44     0.05     0.05
  2.42363     5.48     0.05     0.05
  2.42375     5.50     0.05     0.05
  2.42388     5.51     0.05     0.05
  2.42400     5.52     0.05     0.05
  2.42413     5.51     0.05     0.05
  2.42425     5.49     0.05     0.05
  2.42438     5.47     0.05     0.05
  2.42450     5.43     0.05     0.05
  2.42463     5.39     0.05     0.05
  2.42475     5.33     0.05     0.05
  2.42488     5.29     0.05     0.05
  2.42500     5.23     0.05     0.05
  2.42513     5.19     0.05     0.05
  2.42525     5.15     0.05     0.05
  2.42538     5.11     0.05     0.05
  2.42550     5.08     0.05     0.05
  2.42563     5.05     0.05     0.05
  2.42575     5.03     0.05     0.05
  2.42588     5.01     0.05     0.05
  2.42600     4.99     0.05     0.05
  2.42613     4.98     0.05     0.05
  2.42625     4.96     0.05     0.05
  2.42638     4.95     0.05     0.05
  2.42650     4.94     0.05     0.05
  2.42663     4.92     0.05     0.05
  2.42675     4.92     0.05     0.05
  2.42688     4.91     0.05     0.05
  2.42700     4.90     0.05     0.05
  2.42713     4.90     0.05     0.05
  2.42725     4.89     0.05     0.05
